# Source: Ahlers et al (GZK Neutrinos after the Fermi-LAT Diffuse Photon Flux Measurement [arXiv:1005.2620])
# Data type: Flux
# Column values:
# Energy [GeV]
# Flux [GeV cm^-2 s^-1 sr^-1]
# Flux band minimum
# Flux band maximum

1.24e+7  3.73e-10 0.0 0.0
1.79e+7  5.10e-10 0.0 0.0
2.44e+7  7.13e-10 0.0 0.0
3.11e+7  9.76e-10 0.0 0.0
3.90e+7  1.34e-9 0.0 0.0
4.98e+7  1.84e-9 0.0 0.0
6.41e+7  2.53e-9 0.0 0.0
8.04e+7  3.44e-9 0.0 0.0
9.90e+7  4.58e-9 0.0 0.0
1.22e+8  6.33e-9 0.0 0.0
1.53e+8  8.60e-9 0.0 0.0
1.99e+8  1.21e-8 0.0 0.0
2.65e+8  1.68e-8 0.0 0.0
3.48e+8  2.26e-8 0.0 0.0
5.03e+8  3.20e-8 0.0 0.0
7.32e+8  3.92e-8 0.0 0.0
1.07e+9  4.36e-8 0.0 0.0
1.55e+9  4.56e-8 0.0 0.0
2.25e+9  4.32e-8 0.0 0.0
3.27e+9  3.97e-8 0.0 0.0
4.74e+9  3.51e-8 0.0 0.0
6.87e+9  3.10e-8 0.0 0.0
9.97e+9  2.59e-8 0.0 0.0
1.45e+10  2.18e-8 0.0 0.0
2.10e+10  1.79e-8 0.0 0.0
3.04e+10  1.39e-8 0.0 0.0
4.20e+10  1.02e-8 0.0 0.0
5.42e+10  7.61e-9 0.0 0.0
6.81e+10  5.65e-9 0.0 0.0
8.40e+10  4.10e-9 0.0 0.0
9.99e+10  2.89e-9 0.0 0.0
1.17e+11  2.09e-9 0.0 0.0
1.34e+11  1.55e-9 0.0 0.0
1.53e+11  1.11e-9 0.0 0.0
1.66e+11  8.22e-10 0.0 0.0
1.92e+11  5.77e-10 0.0 0.0
2.21e+11  4.17e-10 0.0 0.0