# Source: ARIANNA, https://arxiv.org/pdf/1909.00840.pdf
# Data type: Upper limit
# Energy bins per decade: 1
# Column values:
# Energy [GeV]
# Flux [GeV cm^-2 s^-1 sr^-1]
# Flux band minimum
# Flux band maximum

1.270e+7  8.004e-6 0.0 0.0 
1.826e+7  6.419e-6 0.0 0.0
2.627e+7  5.114e-6 0.0 0.0
3.778e+7  4.151e-6 0.0 0.0
5.440e+7  3.637e-6 0.0 0.0
7.832e+7  3.221e-6 0.0 0.0
1.128e+8  2.869e-6 0.0 0.0
1.623e+8  2.498e-6 0.0 0.0
2.337e+8  2.165e-6 0.0 0.0
3.364e+8  1.891e-6 0.0 0.0
4.846e+8  1.750e-6 0.0 0.0
6.981e+8  1.641e-6 0.0 0.0
1.006e+9  1.574e-6 0.0 0.0
1.451e+9  1.646e-6 0.0 0.0
2.092e+9  1.705e-6 0.0 0.0
3.017e+9  1.812e-6 0.0 0.0
4.352e+9  1.964e-6 0.0 0.0
6.280e+9  2.168e-6 0.0 0.0
9.062e+9  2.394e-6 0.0 0.0
1.308e+10  2.665e-6 0.0 0.0
1.887e+10  3.028e-6 0.0 0.0
2.724e+10  3.442e-6 0.0 0.0
3.932e+10  3.935e-6 0.0 0.0
5.677e+10  4.635e-6 0.0 0.0
8.196e+10  5.459e-6 0.0 0.0
1.077e+11  6.158e-6 0.0 0.0

