# Source: A. Cuoco et. al, arXiv:0712.1830
# Data type: Flux
# Column values:
# Energy [GeV]
# Flux [GeV cm^-2 s^-1]
# Flux band minimum
# Flux band maximum

5.840e+3  1.150e-12 0.0 0.0
9.347e+3  2.090e-12 0.0 0.0
1.484e+4  3.772e-12 0.0 0.0
2.356e+4  6.824e-12 0.0 0.0
3.501e+4  1.111e-11 0.0 0.0
5.536e+4  1.983e-11 0.0 0.0
8.861e+4  3.604e-11 0.0 0.0
1.387e+5  6.338e-11 0.0 0.0
2.319e+5  1.210e-10 0.0 0.0
3.681e+5  2.190e-10 0.0 0.0
5.892e+5  3.970e-10 0.0 0.0
9.712e+5  7.396e-10 0.0 0.0
1.542e+6  1.335e-9 0.0 0.0
2.467e+6  2.417e-9 0.0 0.0
3.862e+6  4.265e-9 0.0 0.0
9.622e+6  7.063e-9 0.0 0.0
3.083e+7  9.958e-9 0.0 0.0
9.631e+7  1.399e-8 0.0 0.0
3.086e+8  1.977e-8 0.0 0.0
9.640e+8  2.775e-8 0.0 0.0
3.089e+9  3.915e-8 0.0 0.0
9.648e+9  5.489e-8 0.0 0.0
3.092e+10  7.754e-8 0.0 0.0
9.658e+10  1.089e-7 0.0 0.0
3.125e+11  1.542e-7 0.0 0.0
9.409e+11  2.141e-7 0.0 0.0
