# Source: Heinze et. al.
# Data type: Flux
# Column values:
# Energy [GeV]
# Flux [GeV^-1 cm^-2 s^-1 sr^-1]
# Flux band minimum
# Flux band maximum

1037.393	0.0	0.0	0.0
1114.977	0.0	0.0	0.0
1198.362	5.884864e-25	9.468964e-24	1.170266e-21
1287.984	6.169444e-25	8.859337e-24	1.158756e-21
1384.308	6.468323e-25	8.135995e-24	1.14736e-21
1487.836	6.782232e-25	7.272824e-24	1.136077e-21
1599.107	7.386791e-25	7.008871e-24	1.123081e-21
1718.699	8.558454e-25	7.63818e-24	1.107295e-21
1847.235	9.91635e-25	8.327293e-24	1.091732e-21
1985.384	1.149015e-24	9.082001e-24	1.076388e-21
2133.864	1.320946e-24	2.658478e-25	1.056998e-21
2293.449	1.499975e-24	2.691094e-25	1.03142e-21
2464.969	1.703402e-24	2.724113e-25	1.006461e-21
2649.316	1.934567e-24	2.75754e-25	9.821067e-22
2847.45	2.154428e-24	0.0	9.546893e-22
3060.402	2.329021e-24	0.0	9.226986e-22
3289.279	2.517796e-24	0.0	1.010719e-21
3535.274	2.721907e-24	0.0	1.117098e-21
3799.666	2.903882e-24	7.923392e-25	1.275495e-21
4083.831	3.039112e-24	1.358073e-24	1.526929e-21
4389.247	3.18091e-24	2.266946e-24	1.828194e-21
4717.505	3.329618e-24	3.784071e-24	2.397201e-21
5070.313	3.592663e-24	2.088683e-23	3.23392e-21
5449.505	4.044301e-24	2.090237e-23	3.99051e-21
5857.056	4.552751e-24	2.091797e-23	4.925376e-21
6295.087	5.125167e-24	2.093365e-23	6.286885e-21
6765.876	5.897022e-24	2.089584e-23	7.86359e-21
7271.874	6.989617e-24	2.078634e-23	9.126145e-21
7815.715	8.287465e-24	2.065787e-23	1.059365e-20
8400.227	9.82945e-24	2.048628e-23	1.229984e-20
9028.453	1.13309e-23	2.027989e-23	1.388e-20
9703.663	1.258459e-23	2.00291e-23	1.511342e-20
10429.37	1.397836e-23	1.97815e-23	1.646237e-20
11209.35	1.552793e-23	1.953706e-23	1.793271e-20
12047.66	1.66276e-23	1.918218e-23	1.921657e-20
12948.67	1.700678e-23	1.879512e-23	2.017353e-20
13917.05	1.739706e-23	1.841598e-23	2.11784e-20
14957.87	1.779894e-23	1.80446e-23	2.223359e-20
16076.52	1.874495e-23	1.770186e-23	2.317166e-20
17278.83	2.044105e-23	1.739061e-23	2.393784e-20
18571.06	2.229439e-23	1.708497e-23	2.472939e-20
19959.93	2.432008e-23	1.678484e-23	2.554717e-20
21452.67	2.850334e-23	1.655417e-23	2.633569e-20
23057.04	3.631218e-23	1.64004e-23	2.708137e-20
24781.41	4.628002e-23	1.624825e-23	2.784818e-20
26634.73	5.900743e-23	1.60977e-23	2.863675e-20
28626.66	7.444313e-23	1.605726e-23	2.939176e-20
30767.55	9.280647e-23	1.613907e-23	3.01027e-20
33068.56	1.157376e-22	1.622159e-23	3.083088e-20
35541.65	1.443786e-22	1.630482e-23	3.157671e-20
38199.7	1.73923e-22	1.652157e-23	3.219689e-20
41056.53	2.017394e-22	1.688784e-23	3.267213e-20
44127.02	2.340243e-22	1.72627e-23	3.31544e-20
47427.14	2.714978e-22	1.764635e-23	3.36438e-20
50974.06	3.061102e-22	1.814713e-23	3.391628e-20
54786.25	3.350432e-22	1.877886e-23	3.395792e-20
58883.54	3.667177e-22	1.943323e-23	3.399962e-20
63287.25	4.013939e-22	1.992795e-23	3.404137e-20
68020.31	4.307791e-22	2.047536e-23	3.384629e-20
73107.33	4.53288e-22	2.10849e-23	3.341833e-20
78574.79	4.769748e-22	2.171335e-23	3.299581e-20
84451.15	5.019012e-22	2.236129e-23	3.25933e-20
90766.98	5.212758e-22	2.297112e-23	3.204538e-20
97555.16	5.346202e-22	2.354068e-23	3.135893e-20
104851.0	5.483065e-22	2.412494e-23	3.073288e-20
112692.5	5.623437e-22	2.47243e-23	3.014293e-20
121120.4	5.711806e-22	2.518331e-23	2.941881e-20
130178.6	5.749577e-22	2.550463e-23	2.856056e-20
139914.2	5.787597e-22	2.502224e-23	2.772752e-20
150378.0	5.82587e-22	2.444552e-23	2.691895e-20
161624.3	5.810522e-22	2.383627e-23	2.597025e-20
173711.6	5.74752e-22	2.320213e-23	2.491455e-20
186703.0	5.685206e-22	2.258567e-23	2.390211e-20
200665.9	5.623571e-22	2.198637e-23	2.293115e-20
215673.0	5.504951e-22	2.131957e-23	2.182513e-20
231802.5	5.34062e-22	2.060335e-23	2.063051e-20
249138.3	5.181216e-22	1.991163e-23	1.950192e-20
267770.6	5.02659e-22	1.924356e-23	1.843987e-20
287796.3	4.819373e-22	1.849944e-23	1.72676e-20
309319.6	4.575628e-22	1.770575e-23	1.602866e-20
332452.7	4.344268e-22	1.694638e-23	1.487969e-20
357315.7	4.124664e-22	1.621984e-23	1.381414e-20
384038.3	3.867459e-22	1.542663e-23	1.267323e-20
412759.3	3.590188e-22	1.459818e-23	1.155544e-20
443628.2	3.332907e-22	1.374884e-23	1.053774e-20
476805.7	3.09417e-22	1.290135e-23	9.611135e-21
512464.5	2.837347e-22	1.201634e-23	8.631349e-21
550790.1	2.577299e-22	1.112816e-23	7.660608e-21
591981.9	2.341244e-22	1.030613e-23	6.801313e-21
636254.4	2.126963e-22	9.545316e-24	6.040599e-21
683837.8	1.909622e-22	8.765011e-24	5.270496e-21
734979.9	1.699618e-22	7.997555e-24	4.557006e-21
789946.7	1.512905e-22	7.297927e-24	3.945621e-21
849024.3	1.346894e-22	6.66012e-24	3.419096e-21
912520.1	1.184523e-22	6.022709e-24	2.909175e-21
980764.6	1.03277e-22	5.411156e-24	2.445275e-21
1054113.0	9.006947e-23	4.86248e-24	2.059161e-21
1132947.0	7.857371e-23	4.370195e-24	1.737629e-21
1217676.0	6.755587e-23	3.890282e-24	1.440348e-21
1308742.0	5.752031e-23	3.440752e-24	1.18191e-21
1406619.0	4.900466e-23	3.044087e-24	9.742987e-22
1511815.0	4.177763e-23	2.694036e-24	8.07288e-22
1624879.0	3.497413e-23	2.36062e-24	6.603895e-22
1746399.0	2.894935e-23	2.05541e-24	5.382488e-22
1877006.0	2.399918e-23	1.790692e-24	4.430982e-22
2017382.0	1.993045e-23	1.490933e-24	3.68688e-22
2168255.0	1.621384e-23	1.218875e-24	3.067179e-22
2330412.0	1.304645e-23	9.890245e-25	2.568599e-22
2504696.0	1.054304e-23	8.050335e-25	2.182275e-22
2692014.0	8.562332e-24	6.576248e-25	1.880107e-22
2893342.0	6.8457e-24	5.328503e-25	1.639667e-22
3109725.0	5.452447e-24	4.309553e-25	1.44443e-22
3342292.0	4.3915e-24	3.508646e-25	1.28432e-22
3592251.0	3.581034e-24	2.877813e-25	1.151428e-22
3860904.0	2.936728e-24	2.362452e-25	1.041898e-22
4149649.0	2.437845e-24	1.950392e-25	9.468802e-23
4459988.0	2.05969e-24	1.627766e-25	8.623574e-23
4793536.0	1.77065e-24	1.373962e-25	7.868979e-23
5152030.0	1.566472e-24	1.174944e-25	7.170748e-23
5537333.0	1.410251e-24	1.014279e-25	6.533696e-23
5951453.0	1.280712e-24	8.699466e-26	5.960944e-23
6396543.0	1.172282e-24	7.538292e-26	5.438864e-23
6874920.0	1.093795e-24	6.686929e-26	4.916391e-23
7389074.0	1.029486e-24	6.010355e-26	4.421846e-23
7941679.0	9.700172e-25	5.432868e-26	3.977258e-23
8535612.0	9.149331e-25	4.786122e-26	3.577558e-23
9173963.0	8.647985e-25	4.310351e-26	3.187369e-23
9860054.0	8.181198e-25	3.926986e-26	2.826248e-23
10597460.0	7.740667e-25	3.560259e-26	2.506175e-23
11390010.0	7.324842e-25	3.233136e-26	2.222468e-23
12241830.0	6.897897e-25	2.974448e-26	1.952876e-23
13157360.0	6.480163e-25	2.751992e-26	1.708139e-23
14141350.0	6.088113e-25	2.534754e-26	1.494132e-23
15198940.0	5.720139e-25	2.28424e-26	1.306989e-23
16335620.0	5.336339e-25	2.071764e-26	1.134879e-23
17557310.0	4.961417e-25	1.884261e-26	9.819507e-24
18870360.0	4.613058e-25	1.714352e-26	8.498431e-24
20281620.0	4.289361e-25	1.560315e-26	7.36069e-24
21798420.0	3.953491e-25	1.418809e-26	6.344366e-24
23428650.0	3.629274e-25	1.289539e-26	5.456171e-24
25180800.0	3.331778e-25	1.172139e-26	4.692387e-24
27064000.0	3.058789e-25	1.065509e-26	4.035577e-24
29088030.0	2.778626e-25	9.646154e-27	3.458482e-24
31263430.0	2.512423e-25	8.717146e-27	2.959325e-24
33601520.0	2.271808e-25	7.877995e-27	2.532244e-24
36114470.0	2.054312e-25	7.085285e-27	2.166827e-24
38815350.0	1.834527e-25	6.315904e-27	1.847198e-24
41718230.0	1.629658e-25	5.61747e-27	1.572241e-24
44838210.0	1.447728e-25	4.9965e-27	1.338234e-24
48191510.0	1.286162e-25	4.444373e-27	1.139074e-24
51795600.0	1.126329e-25	3.929758e-27	9.642955e-25
55669230.0	9.806872e-26	3.466486e-27	8.145586e-25
59832550.0	8.539238e-26	3.057985e-27	6.880904e-25
64307240.0	7.435855e-26	2.697759e-27	5.812723e-25
69116570.0	6.373897e-26	2.364135e-27	4.870803e-25
74285580.0	5.430756e-26	2.066516e-27	4.068928e-25
79841160.0	4.627488e-26	1.806466e-27	3.399218e-25
85812230.0	3.943301e-26	1.57923e-27	2.839864e-25
92229850.0	3.30499e-26	1.370169e-27	2.345957e-25
99127430.0	2.753279e-26	1.185526e-27	1.930034e-25
106540900.0	2.293854e-26	1.025831e-27	1.587979e-25
114508700.0	1.911247e-26	8.877044e-28	1.306651e-25
123072400.0	1.565247e-26	7.615615e-28	1.05939e-25
132276600.0	1.274234e-26	6.513957e-28	8.545584e-26
142169200.0	1.037428e-26	5.572084e-28	6.894247e-26
152801600.0	8.447121e-27	4.766755e-28	5.562765e-26
164229100.0	6.754173e-27	4.037481e-28	4.406055e-26
176511300.0	5.368277e-27	3.371387e-28	3.468856e-26
189712000.0	4.267286e-27	2.81017e-28	2.731587e-26
203900000.0	3.392519e-27	2.286684e-28	2.151469e-26
219149000.0	2.644265e-27	1.817605e-28	1.656986e-26
235538400.0	2.048359e-27	1.436141e-28	1.267361e-26
253153600.0	1.587007e-27	1.134869e-28	9.696411e-27
272086200.0	1.229767e-27	8.969013e-29	7.420765e-27
292434600.0	9.317987e-28	6.941215e-29	5.531161e-27
314304900.0	7.013698e-28	5.338601e-29	4.09103e-27
337810700.0	5.280429e-28	4.106709e-29	3.026958e-27
363074500.0	3.976373e-28	3.159616e-29	2.240441e-27
390227700.0	2.916856e-28	2.374667e-29	1.608604e-27
419411600.0	2.124091e-28	1.773105e-29	1.145219e-27
450778000.0	1.547249e-28	1.324259e-29	8.156136e-28
484490300.0	1.127388e-28	9.892754e-30	5.810755e-28
520723800.0	7.962611e-29	7.195774e-30	4.004984e-28
559667100.0	5.577961e-29	5.197612e-30	2.782424e-28
601522800.0	3.908827e-29	3.755587e-30	1.933648e-28
646508700.0	2.740088e-29	2.714545e-30	1.344187e-28
694859100.0	1.850243e-29	1.902481e-30	9.016873e-29
746825400.0	1.237714e-29	1.323251e-30	5.994026e-29
802678100.0	8.282338e-30	9.207575e-31	3.98617e-29
862707800.0	5.543994e-30	6.409526e-31	2.703556e-29
927227000.0	3.546156e-30	4.302907e-31	1.775846e-29
996571300.0	2.243713e-30	2.864322e-31	1.156322e-29
1071102000.0	1.419934e-30	1.907511e-31	7.530283e-30
1151206000.0	8.987923e-31	1.270847e-31	4.904577e-30
1237301000.0	5.376346e-31	8.107446e-32	3.069875e-30
1329835000.0	3.174846e-31	5.122465e-32	1.904209e-30
1429289000.0	1.874983e-31	3.237572e-32	1.181253e-30
1536181000.0	1.107417e-31	1.88866e-32	7.328337e-31
1651067000.0	6.083007e-32	1.000708e-32	4.34863e-31
1774545000.0	3.29e-32	5.214228e-33	2.556191e-31
1907258000.0	1.779599e-32	2.714698e-33	1.502747e-31
2049895000.0	9.627124e-33	1.357342e-33	8.971573e-32
2203200000.0	4.731733e-33	5.894591e-34	5.960433e-32
2367971000.0	2.282381e-33	2.520671e-34	3.929096e-32
2545064000.0	1.101597e-33	1.08964e-34	2.59114e-32
2735401000.0	5.32026e-34	4.748111e-35	1.709485e-32
2939973000.0	2.290605e-34	2.491504e-36	1.076333e-32
3159844000.0	9.670201e-35	1.74607e-36	6.719107e-33
3396159000.0	4.090767e-35	1.539293e-36	4.195686e-33
3650147000.0	1.733714e-35	1.376001e-36	2.620697e-33
3923129000.0	8.484255e-36	0.0	1.550663e-33
4216528000.0	4.266562e-36	0.0	9.090215e-34
4531868000.0	2.150279e-36	0.0	5.32997e-34
4870792000.0	1.08589e-36	0.0	3.125839e-34
5235064000.0	8.41529e-38	0.0	1.717175e-34
5626577000.0	5.232166e-38	0.0	9.334353e-35
6047371000.0	3.452895e-38	0.0	5.07465e-35
6499635000.0	2.321155e-38	0.0	2.769705e-35
6985722000.0	1.694434e-38	0.0	1.381865e-35
7508161000.0	1.252981e-38	0.0	6.801714e-36
8069673000.0	9.283644e-39	0.0	3.348272e-36
8673178000.0	6.901165e-39	0.0	1.648436e-36
9321817000.0	3.262262e-39	0.0	7.041241e-37
10018970000.0	3.050118e-39	0.0	2.950022e-37
10768250000.0	2.85177e-39	0.0	1.236338e-37
11573580000.0	2.666321e-39	0.0	5.183063e-38
12439130000.0	4.452083e-39	0.0	7.400001e-38
13369410000.0	2.448855e-39	0.0	3.893495e-38
14369270000.0	1.371377e-39	0.0	2.179836e-38
15443900000.0	7.794069e-40	0.0	1.261635e-38
16598900000.0	0.0	0.0	3.898402e-40
17840280000.0	0.0	0.0	6.380157e-40
19174490000.0	0.0	0.0	1.189034e-39
20608490000.0	0.0	0.0	2.256376e-39
22149740000.0	0.0	0.0	1.657954e-42
23806240000.0	0.0	0.0	8.354956e-43
25586640000.0	0.0	0.0	5.765433e-43
27500180000.0	0.0	0.0	5.901602e-43
29556830000.0	0.0	0.0	3.075005e-42
31767290000.0	0.0	0.0	1.101482e-42
34143070000.0	0.0	0.0	4.916551e-43
36696520000.0	0.0	0.0	2.424136e-43
39440930000.0	0.0	0.0	1.055255e-42
42390590000.0	0.0	0.0	3.736704e-43
45560850000.0	0.0	0.0	1.487901e-43
48968200000.0	0.0	0.0	1.251373e-43
52630380000.0	0.0	0.0	1.814426e-42
56566440000.0	0.0	0.0	8.269683e-43
60796860000.0	0.0	0.0	4.21832e-43
65343660000.0	0.0	0.0	2.239574e-43
70230510000.0	0.0	0.0	4.562006e-43
75482820000.0	0.0	0.0	2.956733e-43
81127940000.0	0.0	0.0	2.130303e-43
87195240000.0	0.0	0.0	1.79788e-43
93716300000.0	0.0	0.0	1.369998e-43
100725000000.0	0.0	0.0	1.073674e-43
108257900000.0	0.0	0.0	8.492475e-44
116354200000.0	0.0	0.0	6.778348e-44
125056000000.0	0.0	0.0	5.580338e-44
134408500000.0	0.0	0.0	4.60256e-44
144460500000.0	0.0	0.0	3.799255e-44
155264200000.0	0.0	0.0	3.138803e-44
166876000000.0	0.0	0.0	2.543767e-44
179356100000.0	0.0	0.0	2.06045e-44
192769500000.0	0.0	0.0	1.669069e-44
207186200000.0	0.0	0.0	1.352117e-44
222681000000.0	0.0	0.0	1.139304e-44
239334600000.0	0.0	0.0	9.607778e-45
257233600000.0	0.0	0.0	8.152741e-45
276471300000.0	0.0	0.0	6.957943e-45
297147700000.0	0.0	0.0	6.146233e-45
319370400000.0	0.0	0.0	5.534262e-45
343255100000.0	0.0	0.0	5.007606e-45
368926100000.0	0.0	0.0	4.531116e-45
396516900000.0	0.0	0.0	4.070968e-45
426171100000.0	0.0	0.0	3.657546e-45
458043100000.0	0.0	0.0	3.286136e-45
492298700000.0	0.0	0.0	2.952063e-45
529116200000.0	0.0	0.0	2.606732e-45
568687100000.0	0.0	0.0	2.301817e-45
611217400000.0	0.0	0.0	2.032586e-45
656928400000.0	0.0	0.0	1.794317e-45
706057900000.0	0.0	0.0	1.556719e-45
758861800000.0	0.0	0.0	1.350591e-45
815614600000.0	0.0	0.0	1.171765e-45
876611800000.0	0.0	0.0	1.028774e-45
942170900000.0	0.0	0.0	8.960514e-46
1012633000000.0	0.0	0.0	7.804539e-46
1088364000000.0	0.0	0.0	6.797716e-46
1169760000000.0	0.0	0.0	5.918067e-46
1257242000000.0	0.0	0.0	5.088263e-46
1351267000000.0	0.0	0.0	4.376775e-46
1452324000000.0	0.0	0.0	3.768816e-46
1560939000000.0	0.0	0.0	3.243095e-46
1677677000000.0	0.0	0.0	2.750252e-46
1803145000000.0	0.0	0.0	2.332311e-46
1937996000000.0	0.0	0.0	1.977888e-46
2082933000000.0	1.424656e-48	0.0	1.675585e-46
2238709000000.0	1.327594e-48	0.0	1.393892e-46
2406135000000.0	1.237541e-48	0.0	1.159559e-46
2586082000000.0	1.153968e-48	0.0	9.646214e-47
2779487000000.0	1.070547e-48	0.0	8.010978e-47
2987356000000.0	9.165793e-49	0.0	6.48816e-47
3210770000000.0	7.848827e-49	0.0	5.254841e-47
3450894000000.0	6.722172e-49	0.0	4.25598e-47
3708975000000.0	5.727097e-49	0.0	3.437333e-47
3986358000000.0	4.553969e-49	0.0	2.69246e-47
4284485000000.0	3.621696e-49	0.0	2.255385e-47
4604907000000.0	2.880713e-49	0.0	1.91023e-47
4949294000000.0	2.280433e-49	0.0	2.0211e-47
5319436000000.0	1.70843e-49	0.0	1.853423e-47
5717259000000.0	1.279984e-49	0.0	1.69977e-47
6144835000000.0	9.590444e-50	0.0	1.558959e-47
6604388000000.0	7.145603e-50	0.0	1.419821e-47
7098309000000.0	5.031399e-50	0.0	1.204886e-47
7629169000000.0	3.543007e-50	0.0	1.022533e-47
8199730000000.0	2.495104e-50	0.0	8.678177e-48
8812962000000.0	1.748246e-50	0.0	7.319061e-48
9472055000000.0	1.170025e-50	0.0	5.832753e-48
10180440000000.0	7.834939e-51	0.0	4.648415e-48
10941800000000.0	5.24955e-51	0.0	3.704669e-48
11760100000000.0	3.505416e-51	0.0	2.93272e-48
12639610000000.0	2.270274e-51	0.0	2.197442e-48
13584880000000.0	1.473676e-51	0.0	1.646542e-48
14600850000000.0	9.58749e-52	0.0	1.233777e-48
15692800000000.0	6.254105e-52	0.0	9.158978e-49
16866420000000.0	4.098561e-52	0.0	6.343223e-49
18127800000000.0	2.687944e-52	0.0	4.39321e-49
19483520000000.0	1.764108e-52	0.0	3.048157e-49
20940630000000.0	1.160014e-52	0.0	2.07883e-49
22506720000000.0	7.693803e-53	0.0	1.245111e-49
24189920000000.0	5.10372e-53	0.0	7.458313e-50
25999010000000.0	3.386108e-53	0.0	4.468037e-50
27943390000000.0	2.228035e-53	0.0	2.26376e-50
30033190000000.0	1.390731e-53	0.0	1.126574e-50
32279280000000.0	8.684216e-54	0.0	5.611912e-51
34693340000000.0	5.424787e-54	0.0	2.798167e-51
37287950000000.0	0.0	0.0	6.329513e-51
40076590000000.0	0.0	0.0	6.403712e-51
43073790000000.0	0.0	0.0	6.479066e-51
46295140000000.0	0.0	0.0	6.555594e-51
49757410000000.0	0.0	0.0	8.180108e-51
53478610000000.0	0.0	0.0	9.711352e-51
57478100000000.0	0.0	0.0	1.152977e-50
61776710000000.0	0.0	0.0	1.368931e-50
66396790000000.0	0.0	0.0	1.584425e-50
71362400000000.0	0.0	0.0	1.611403e-50
76699360000000.0	0.0	0.0	1.638842e-50
82435460000000.0	0.0	0.0	1.666747e-50
88600550000000.0	0.0	0.0	0.0
95226700000000.0	0.0	0.0	0.0
102348400000000.0	0.0	0.0	0.0
110002700000000.0	0.0	0.0	0.0
118229500000000.0	0.0	0.0	0.0
127071500000000.0	0.0	0.0	0.0
136574700000000.0	0.0	0.0	0.0
146788700000000.0	0.0	0.0	0.0
157766600000000.0	0.0	0.0	0.0
169565500000000.0	0.0	0.0	0.0
182246700000000.0	0.0	0.0	0.0
195876400000000.0	0.0	0.0	0.0
210525300000000.0	0.0	0.0	0.0
226269900000000.0	0.0	0.0	0.0
243191900000000.0	0.0	0.0	0.0
261379400000000.0	0.0	0.0	0.0
280927100000000.0	0.0	0.0	0.0
301936800000000.0	0.0	0.0	0.0
324517700000000.0	0.0	0.0	0.0
348787300000000.0	0.0	0.0	0.0
374872000000000.0	0.0	0.0	0.0
402907500000000.0	0.0	0.0	0.0
433039600000000.0	0.0	0.0	0.0
465425300000000.0	0.0	0.0	0.0
500233000000000.0	0.0	0.0	0.0
537643800000000.0	0.0	0.0	0.0
577852500000000.0	0.0	0.0	0.0
621068200000000.0	0.0	0.0	0.0
667515900000000.0	0.0	0.0	0.0
717437300000000.0	0.0	0.0	0.0
771092200000000.0	0.0	0.0	0.0
828759700000000.0	0.0	0.0	0.0
890740000000000.0	0.0	0.0	0.0
957355600000000.0	0.0	0.0	0.0
1028953000000000.0	0.0	0.0	0.0
1105905000000000.0	0.0	0.0	0.0
1188612000000000.0	0.0	0.0	0.0
1277505000000000.0	0.0	0.0	0.0
1373045000000000.0	0.0	0.0	0.0
1475731000000000.0	0.0	0.0	0.0
1586096000000000.0	0.0	0.0	0.0
1704716000000000.0	0.0	0.0	0.0
1832206000000000.0	0.0	0.0	0.0
1969231000000000.0	0.0	0.0	0.0
2116503000000000.0	0.0	0.0	0.0
2274790000000000.0	0.0	0.0	0.0
2444914000000000.0	0.0	0.0	0.0
2627761000000000.0	0.0	0.0	0.0
2824283000000000.0	0.0	0.0	0.0
3035502000000000.0	0.0	0.0	0.0
3262518000000000.0	0.0	0.0	0.0
3506511000000000.0	0.0	0.0	0.0
3768752000000000.0	0.0	0.0	0.0
4050605000000000.0	0.0	0.0	0.0
4353537000000000.0	0.0	0.0	0.0
4679124000000000.0	0.0	0.0	0.0
5029060000000000.0	0.0	0.0	0.0
5405168000000000.0	0.0	0.0	0.0
