# Source: Kotera  et  al. 1101.4256. Fig 2 GRB
# Data type: Flux
# Column values:
# Energy [GeV]
# Flux [GeV cm^-2 s^-1 sr^-1]
# Flux band minimum
# Flux band maximum

1.221800e+05  2.343000e-10 0.0 0.0 
1.555966e+05  3.304000e-10 0.0 0.0
2.018366e+05  4.725000e-10 0.0 0.0
2.786121e+05  7.037000e-10 0.0 0.0
4.111497e+05  1.033000e-09 0.0 0.0
6.870684e+05  1.522000e-09 0.0 0.0
1.166810e+06  1.985000e-09 0.0 0.0
1.819701e+06  2.289000e-09 0.0 0.0
3.111716e+06  2.454000e-09 0.0 0.0
5.821032e+06  2.415000e-09 0.0 0.0
1.076465e+07  2.225000e-09 0.0 0.0
1.995262e+07  2.013000e-09 0.0 0.0
3.698282e+07  2.136000e-09 0.0 0.0
6.576578e+07  2.776000e-09 0.0 0.0
1.145513e+08  3.901000e-09 0.0 0.0
1.995262e+08  5.560000e-09 0.0 0.0
3.451437e+08  7.556000e-09 0.0 0.0
5.888437e+08  9.623000e-09 0.0 0.0
9.772372e+08  1.134000e-08 0.0 0.0
1.482518e+09  1.228000e-08 0.0 0.0
2.558586e+09  1.241000e-08 0.0 0.0
4.623810e+09  1.090000e-08 0.0 0.0
8.375293e+09  8.159000e-09 0.0 0.0
1.380384e+10  5.635000e-09 0.0 0.0
2.041738e+10  3.792000e-09 0.0 0.0
2.818383e+10  2.570000e-09 0.0 0.0
3.715352e+10  1.742000e-09 0.0 0.0
4.570882e+10  1.241000e-09 0.0 0.0
5.623413e+10  8.519000e-10 0.0 0.0
6.918310e+10  5.554000e-10 0.0 0.0
8.511380e+10  3.544000e-10 0.0 0.0
1.000000e+11  2.342000e-10 0.0 0.0
1.174898e+11  1.521000e-10 0.0 0.0
1.380384e+11  9.716000e-11 0.0 0.0
1.584893e+11  6.176000e-11 0.0 0.0
1.819701e+11  3.991000e-11 0.0 0.0
2.089296e+11  2.563000e-11 0.0 0.0
2.344229e+11  1.640000e-11 0.0 0.0
2.630268e+11  1.077000e-11 0.0 0.0
2.884032e+11  7.075000e-12 0.0 0.0
3.162278e+11  4.734000e-12 0.0 0.0
3.467369e+11  3.126000e-12 0.0 0.0
3.801894e+11  2.006000e-12 0.0 0.0
4.168694e+11  1.290000e-12 0.0 0.0
4.466836e+11  9.976000e-13 0.0 0.0