# Source: van Vliet et. al. Phys. Rev. D 100, 021302 (2019) (arXiv:1901.01899), alpha=2.0, E=10^3EeV
# Data type: Flux
# Column values:
# Energy [GeV]
# Flux [GeV cm^-2 s^-1 sr^-1]
# Flux band minimum
# Flux band maximum

5.919e+6  5.732e-11 0.0 0.0
7.381e+6  6.453e-11 0.0 0.0
1.125e+7  7.363e-11 0.0 0.0
1.717e+7  8.381e-11 0.0 0.0
2.598e+7  1.029e-10 0.0 0.0
3.355e+7  1.269e-10 0.0 0.0
4.773e+7  1.906e-10 0.0 0.0
5.676e+7  2.369e-10 0.0 0.0
7.416e+7  3.491e-10 0.0 0.0
9.232e+7  4.948e-10 0.0 0.0
1.021e+8  5.930e-10 0.0 0.0
1.304e+8  8.166e-10 0.0 0.0
1.475e+8  9.696e-10 0.0 0.0
1.904e+8  1.357e-9 0.0 0.0
2.326e+8  1.704e-9 0.0 0.0
2.765e+8  2.085e-9 0.0 0.0
3.347e+8  2.504e-9 0.0 0.0
3.957e+8  2.936e-9 0.0 0.0
4.651e+8  3.444e-9 0.0 0.0
5.707e+8  3.967e-9 0.0 0.0
7.058e+8  4.344e-9 0.0 0.0
9.315e+8  4.887e-9 0.0 0.0
1.207e+9  5.518e-9 0.0 0.0
1.433e+9  5.703e-9 0.0 0.0
1.786e+9  6.021e-9 0.0 0.0
2.266e+9  6.202e-9 0.0 0.0
2.849e+9  6.226e-9 0.0 0.0
3.583e+9  6.226e-9 0.0 0.0
4.506e+9  6.108e-9 0.0 0.0
5.666e+9  5.869e-9 0.0 0.0
7.125e+9  5.553e-9 0.0 0.0
8.960e+9  5.275e-9 0.0 0.0
1.181e+10  4.738e-9 0.0 0.0
1.392e+10  4.469e-9 0.0 0.0
1.803e+10  3.879e-9 0.0 0.0
2.107e+10  3.609e-9 0.0 0.0
2.704e+10  3.038e-9 0.0 0.0
3.160e+10  2.764e-9 0.0 0.0
4.080e+10  2.220e-9 0.0 0.0
4.953e+10  1.866e-9 0.0 0.0
6.228e+10  1.444e-9 0.0 0.0
7.971e+10  1.079e-9 0.0 0.0
8.782e+10  9.763e-10 0.0 0.0
