# Source: Batista et. al  JCAP 01 (2019) 002 (https://arxiv.org/abs/1806.10879)
# Data type: Flux
# Column values:
# Energy [eV]
# Flux [GeV cm^-2 s^-1 sr^-1]
# Flux band minimum
# Flux band maximum

100000000000000000  1.291549665014978e-10 0.0 0.0
112113833225252960  1.367549319014701e-10 0.0 0.0
125695116004599400  1.290317646650653e-10 0.0 0.0
141872667411659900  1.2530189740809475e-10 0.0 0.0
157992621874098270  1.1822885321399826e-10 0.0 0.0
177131584596131070  1.1155193712149721e-10 0.0 0.0
199929250939134750  1.0225840237458513e-10 0.0 0.0
222645750738893900  9.374438647444349e-11 0.0 0.0
249616685666517950  8.845021854828765e-11 0.0 0.0
281743524741809540  7.877732606728304e-11 0.0 0.0
315873465451984260  7.016422799265084e-11 0.0 0.0
354137850259664700  6.249284071408179e-11 0.0 0.0
397037518827619800  5.2541886101158997e-11 0.0 0.0
445133981700083650  4.5467451521564526e-11 0.0 0.0
499056769872163900  3.822750945321821e-11 0.0 0.0
563287718585815600  3.1226236462080335e-11 0.0 0.0
631523453393638800  2.4783116158755566e-11 0.0 0.0
708025151316102300  2.0244718510859142e-11 0.0 0.0
793794137339386400  1.561091823686587e-11 0.0 0.0
895959168659778800  1.203740756431965e-11 0.0 0.0
1004494168117595600  9.282173282361441e-12 0.0 0.0
1126176916400762500  7.157582758862269e-12 0.0 0.0
1254136169865377000  5.210221078191059e-12 0.0 0.0
1415549381486958800  3.5799950021442598e-12 0.0 0.0
1587026672781401900  2.605913544824095e-12 0.0 0.0
1779276437162436600  1.896870079156354e-12 0.0 0.0
1994815017376517000  1.4211330213855202e-12 0.0 0.0
2236463581733827600  1.0050617654615576e-12 0.0 0.0
2507385050168603000  6.519166716269868e-13 0.0 0.0
2811125493460976000  4.228549541430215e-13 0.0 0.0
3172930539096130000  3.7661164831955e-13 0.0 0.0
3557294052955384300  3.354349135283937e-13 0.0 0.0
3988218721862241300  1.7276314642880332e-13 0.0 0.0
4471344886486985000  8.399526845203097e-14 0.0 0.0
5012996148961936000  5.2933985766285956e-14 0.0 0.0
5620262142035539000  3.1490187492821764e-14 0.0 0.0
6301091324743806000  2.227066921954882e-14 0.0 0.0
7112071353776087000  1.4867569403845236e-14 0.0 0.0
7920164050192541000  6.629750686658786e-15 0.0 0.0
8939526338458736000  2.711261162918493e-15 0.0 0.0
10022445650227272000  1.8629869484902335e-15 0.0 0.0
11236548001387516000  1.2801128927427042e-15 0.0 0.0
12513274839628968000  3.496817308962466e-16 0.0 0.0
14123792045256532000  7.584321586093745e-17 0.0 0.0
15834724658700583000  5.848351218076747e-17 0.0 0.0
17752916795533580000  4.509725963188297e-17 0.0 0.0
19903475528762600000  4.2550414167533565e-17 0.0 0.0
22465146250590196000  4.014627364204336e-17 0.0 0.0
25186536601196065000  2.44929167999354e-18 0.0 0.0
28237591640282485000  1.3704938422673065e-19 0.0 0.0
31658246398414540000  1.1195227379736576e-19 0.0 0.0