# Source: Ahlers & Halzen (2012), https://arxiv.org/abs/1208.4181 Fig 2 N, solid line
# Data type: Flux
# Column values:
# Energy [GeV]
# Flux [GeV cm^-2 s^-1 sr^-1]
# Flux band minimum
# Flux band maximum


403305.4379  5.24E-13 0 0
465757.2342  6.69E-13 0 0
538682.7561  8.42E-13 0 0
620442.5608  1.04E-12 0 0
690476.8452  1.26E-12 0 0
801691.3715  1.59E-12 0 0
918267.2794  1.94E-12 0 0
1051794.776  2.37E-12 0 0
1228332.769  2.96E-12 0 0
1420657.873  3.61E-12 0 0
1643096.107  4.40E-12 0 0
1900362.409  5.43E-12 0 0
2219327.833  6.71E-12 0 0
2617086.352  8.23E-12 0 0
3056349.965  9.99E-12 0 0
3669229.444  1.22E-11 0 0
4145400.834  1.42E-11 0 0
5147242.884  1.74E-11 0 0
6203649.812  2.18E-11 0 0
7531449.359  2.58E-11 0 0
9322512.507  2.92E-11 0 0
11539510.56  3.40E-11 0 0
14283735.63  3.81E-11 0 0
17680568.2  4.17E-11 0 0
21885205.66  4.47E-11 0 0
27089753.08  4.69E-11 0 0
33532000.27  4.78E-11 0 0
41506286.1  4.95E-11 0 0
51376946.56  4.97E-11 0 0
63594960.81  4.97E-11 0 0
78718555.92  4.87E-11 0 0
97438711.6  4.74E-11 0 0
120610730.3  4.54E-11 0 0
149293315  4.27E-11 0 0
184796940.1  3.92E-11 0 0
228743725.6  3.53E-11 0 0
283141549.7  3.09E-11 0 0
350475786.5  2.64E-11 0 0
433822860.3  2.22E-11 0 0
536990803.2  1.81E-11 0 0
658278541  1.47E-11 0 0
791460817.7  1.20E-11 0 0
942404989.1  9.85E-12 0 0
1122136616  7.99E-12 0 0
1336145924  6.44E-12 0 0
1590970212  5.14E-12 0 0
1894393546  4.11E-12 0 0
2255684538  3.28E-12 0 0
2685879472  2.63E-12 0 0
3167255601  2.14E-12 0 0
3734906256  1.75E-12 0 0
4447212308  1.42E-12 0 0
5295366458  1.16E-12 0 0
6305277100  9.43E-13 0 0
7507793771  7.67E-13 0 0
8767935842  6.33E-13 0 0
10362531307  5.17E-13 0 0
11728549145  4.98E-13 0 0