# Source: Astrophysical upper band from Righi et al (2020) and fang_pulsar, https://arxiv.org/pdf/2003.08701.pdf, left solid red line
# Data type: Flux
# Column values:
# Energy [GeV]
# Flux [GeV cm^-2 s^-1 sr^-1]
# Flux band minimum
# Flux band maximum


1122.02	3.56632e-11 0 0
1412.54	4.20738e-11 0 0
1778.28	4.82209e-11 0 0
2238.72	5.56639e-11 0 0
2818.38	6.45449e-11 0 0
3548.13	7.38819e-11 0 0
4466.84	8.488e-11 0 0
5623.41	9.63837e-11 0 0
7079.46	1.09772e-10 0 0
8912.51	1.27277e-10 0 0
11220.18	1.56016e-10 0 0
14125.38	1.8158e-10 0 0
17782.79	2.07243e-10 0 0
22387.21	2.36197e-10 0 0
28183.83	2.66747e-10 0 0
35481.34	3.08939e-10 0 0
44668.36	3.47315e-10 0 0
56234.13	3.95239e-10 0 0
70794.58	4.38466e-10 0 0
89125.09	5.09284e-10 0 0
112201.85	5.6037e-10 0 0
141253.75	6.25193e-10 0 0
177827.94	7.27306e-10 0 0
223872.11	8.17867e-10 0 0
281838.29	9.03526e-10 0 0
354813.39	1.02586e-09 0 0
446683.59	1.17979e-09 0 0
562341.33	1.29799e-09 0 0
707945.78	1.44449e-09 0 0
891250.94	1.65794e-09 0 0
1122018.45	1.81323e-09 0 0
1412537.54	2.05747e-09 0 0
1778279.41	2.33268e-09 0 0
2238721.14	2.59949e-09 0 0
2818382.93	2.85362e-09 0 0
3548133.89	3.15925e-09 0 0
4466835.92	3.54465e-09 0 0
5623413.25	3.94812e-09 0 0
7079457.84	4.37681e-09 0 0
8912509.38	4.96965e-09 0 0
11220184.54	5.56394e-09 0 0
14125375.45	6.09648e-09 0 0
17782794.1	6.59524e-09 0 0
22387211.39	7.27021e-09 0 0
28183829.31	8.04191e-09 0 0
35481338.92	8.38133e-09 0 0
44668359.22	9.10713e-09 0 0
56234132.52	1.00969e-08 0 0
70794578.44	1.09803e-08 0 0
89125093.81	1.10566e-08 0 0
112201845.43	1.1863e-08 0 0
141253754.46	1.27953e-08 0 0
177827941.0	1.24601e-08 0 0
223872113.86	1.38569e-08 0 0
281838293.13	1.48415e-08 0 0
354813389.23	1.35992e-08 0 0
446683592.15	1.46212e-08 0 0
562341325.19	1.48186e-08 0 0
707945784.38	1.45969e-08 0 0
891250938.13	1.31277e-08 0 0
1122018454.3	1.14787e-08 0 0
1412537544.62	1.20881e-08 0 0
1778279410.04	1.02434e-08 0 0
2238721138.57	9.61126e-09 0 0
2818382931.26	6.77688e-09 0 0
11269057539  6.56E-09 0 0
14112321690  6.20E-09 0 0
17672961807  5.84E-09 0 0
22131976997  5.36E-09 0 0
27716033745  4.85E-09 0 0
34708988115  4.30E-09 0 0
43024062990  3.69E-09 0 0
52788519925  3.15E-09 0 0
62812103924  2.62E-09 0 0
72480801291  2.21E-09 0 0
83637805894  1.85E-09 0 0
95530241001  1.57E-09 0 0
105816868673  1.31E-09 0 0
114838135225  1.10E-09 0 0
124628497018  9.33E-10 0 0
135253522174  7.88E-10 0 0
146784368729  6.66E-10 0 0
159298261198  5.62E-10 0 0
172879007761  4.70E-10 0 0
181948834270  3.92E-10 0 0
193462901488  3.17E-10 0 0
204029513366  2.60E-10 0 0
218084883395  2.11E-10 0 0
232564249908  1.67E-10 0 0
245266510376  1.37E-10 0 0
262162652028  1.11E-10 0 0
279568485324  8.75E-11 0 0
294838036515  7.18E-11 0 0
312216153181  5.96E-11 0 0
320957225577  4.82E-11 0 0
332653478049  3.86E-11 0 0
346543439494  2.91E-11 0 0
361013376925  2.19E-11 0 0
376087507266  1.65E-11 0 0
391791058620  1.24E-11 0 0
408150312492  1.01E-11 0 0
