# Source: Righi et al (2020), https://arxiv.org/pdf/2003.08701.pdf, left solid red line
# Data type: Flux
# Column values:
# Energy [GeV]
# Flux [GeV cm^-2 s^-1 sr^-1]
# Flux band minimum
# Flux band maximum


1914122.819  1.06E-11 0 0
1975827.085  1.34E-11 0 0
2109724.817  1.64E-11 0 0
2213727.524  1.99E-11 0 0
2237263.871  2.46E-11 0 0
2441236.35  2.99E-11 0 0
2595670.056  3.73E-11 0 0
2668034.267  4.83E-11 0 0
2771573.269  6.35E-11 0 0
2906665.561  7.90E-11 0 0
3032265.632  9.60E-11 0 0
3232468.388  1.18E-10 0 0
3610376.392  1.44E-10 0 0
3943009.768  1.87E-10 0 0
4206712.709  2.33E-10 0 0
4712091.298  2.95E-10 0 0
5180505.613  3.65E-10 0 0
5629377.289  4.41E-10 0 0
6459069.199  5.47E-10 0 0
7411046.156  6.58E-10 0 0
8413874.969  7.80E-10 0 0
9860336.225  9.47E-10 0 0
12182954.37  1.11E-09 0 0
15374450.41  1.30E-09 0 0
19402003.69  1.47E-09 0 0
24484631.13  1.60E-09 0 0
30898724.22  1.71E-09 0 0
38993079.12  1.80E-09 0 0
49207863.99  1.86E-09 0 0
62098555.26  1.95E-09 0 0
78366144.2  1.98E-09 0 0
98895256.61  2.03E-09 0 0
124802258.4  2.05E-09 0 0
157495963.3  2.13E-09 0 0
198754243.5  2.18E-09 0 0
250820709.7  2.17E-09 0 0
316526718.3  2.27E-09 0 0
399445338.9  2.28E-09 0 0
504085657.1  2.33E-09 0 0
636137976.7  2.34E-09 0 0
802783256.5  2.34E-09 0 0
1013083608  2.33E-09 0 0
1278475092  2.29E-09 0 0
1613389603  2.26E-09 0 0
2036039675  2.21E-09 0 0
2569408872  2.15E-09 0 0
3242501622  2.16E-09 0 0
4091920475  2.09E-09 0 0
5163856528  2.03E-09 0 0
6516601291  1.95E-09 0 0
8223716548  1.84E-09 0 0
10378034629  1.68E-09 0 0
13096706596  1.56E-09 0 0
16527572879  1.41E-09 0 0
20857202783  1.22E-09 0 0
26321040065  1.03E-09 0 0
32178877830  8.75E-10 0 0
37710871141  7.24E-10 0 0
43728964189  6.02E-10 0 0
50707455202  5.01E-10 0 0
57568955730  4.10E-10 0 0
61052755036  3.45E-10 0 0
68908073933  2.81E-10 0 0
74991919219  2.33E-10 0 0
81612902917  1.94E-10 0 0
88194429092  1.57E-10 0 0
96660166832  1.32E-10 0 0
104824037368  1.09E-10 0 0
109739777771  8.30E-11 0 0
116929029313  6.42E-11 0 0
124326012127  5.07E-11 0 0
129972894584  4.17E-11 0 0
135876258215  3.43E-11 0 0
144471851223  2.72E-11 0 0
153611205299  2.15E-11 0 0
160588220048  1.77E-11 0 0
167882130527  1.45E-11 0 0
178975008731  1.10E-11 0 0
191204857612  9.74E-12 0 0