# Source: van Vliet et. al. Phys. Rev. D 100, 021302 (2019) (arXiv:1901.01899)
# Data type: Flux
# Column values:
# Energy [GeV]
# Flux [GeV cm^-2 s^-1 sr^-1]
# Flux band minimum
# Flux band maximum

636298.0110642767  4.4203284998849976e-11 0.0 0.0
791594.0038105744  6.443041209516008e-11 0.0 0.0
1007691.9449665702  1.0254372531899667e-10 0.0 0.0
1253630.9833650778  1.5135612484362134e-10 0.0 0.0
1614309.0774124174  2.178621665415179e-10 0.0 0.0
2008300.1420030494  2.8719826911985367e-10 0.0 0.0
2527331.612226285  3.646012739770066e-10 0.0 0.0
3180503.2248753454  4.4574954556502503e-10 0.0 0.0
4002482.5845990838  5.182573315144661e-10 0.0 0.0
5036896.90195075  5.518463594220697e-10 0.0 0.0
6338648.542407681  5.588210117357401e-10 0.0 0.0
7976829.013237508  5.518463594220697e-10 0.0 0.0
10038386.050389646  5.182573315144661e-10 0.0 0.0
12488371.906322729  4.867127545242507e-10 0.0 0.0
15715906.424528856  4.5708818961487517e-10 0.0 0.0
20006205.49879235  4.082339234476058e-10 0.0 0.0
25176672.81911508  3.646012739770051e-10 0.0 0.0
31683412.143248785  3.5111917342151276e-10 0.0 0.0
39871773.85396273  3.6920938106277963e-10 0.0 0.0
50176361.784325376  4.082339234476058e-10 0.0 0.0
63144100.16301032  4.867127545242507e-10 0.0 0.0
79463262.05424143  6.178870468273692e-10 0.0 0.0
100000000  8.145337631468997e-10 0.0 0.0
125844317.757482  1.0737646220501114e-9 0.0 0.0
158367923.118461  1.3978306065792104e-9 0.0 0.0
199297032.3951209  1.796989148532592e-9 0.0 0.0
250803990.72854778  2.224706518279589e-9 0.0 0.0
315622571.0408768  2.719853139079307e-9 0.0 0.0
397193071.21501213  3.1622776601683795e-9 0.0 0.0
499844910.65052575  3.6307805477010177e-9 0.0 0.0
629026417.6536573  4.01454530732306e-9 0.0 0.0
791594003.8105648  4.438873077788896e-9 0.0 0.0
1019340940.7818459  4.78630092322638e-9 0.0 0.0
1253630983.3650675  4.908051271653861e-9 0.0 0.0
1577623358.2121885  4.970082941470988e-9 0.0 0.0
2008300142.0030494  4.9700829414710085e-9 0.0 0.0
2498449347.0323615  4.846793819914283e-9 0.0 0.0
3180503224.875345  4.726563039168632e-9 0.0 0.0
4002482584.599125  4.494974918189751e-9 0.0 0.0
5036896901.95074  4.274733955248149e-9 0.0 0.0
6338648542.407656  4.065284171932746e-9 0.0 0.0
7976829013.237459  3.770193465434997e-9 0.0 0.0
10038386050.389605  3.540714496578173e-9 0.0 0.0
12488371906.322756  3.283701235484204e-9 0.0 0.0
15715906424.528986  3.045344044073922e-9 0.0 0.0
20006205498.79251  2.82428871620805e-9 0.0 0.0
25176672819.11508  2.586588085255211e-9 0.0 0.0
31683412143.248787  2.339326869154714e-9 0.0 0.0
39871773853.96281  2.142442085523384e-9 0.0 0.0
50176361784.32517  1.9376383757594815e-9 0.0 0.0
63144100163.00994  1.7305407016213149e-9 0.0 0.0
79463262054.24191  1.5262875568926962e-9 0.0 0.0
100000000000  1.3631556706476082e-9 0.0 0.0