# Source: van Vliet et. al. Phys. Rev. D 100, 021302 (2019) (arXiv:1901.01899), alpha=2.0, E=10^5 EeV
# Data type: Flux
# Column values:
# Energy [GeV]
# Flux [GeV cm^-2 s^-1 sr^-1]
# Flux band minimum
# Flux band maximum

5.218e+6  5.596e-11 0.0 0.0
6.085e+6  5.976e-11 0.0 0.0
7.526e+6  6.580e-11 0.0 0.0
8.559e+6  6.810e-11 0.0 0.0
1.125e+7  7.579e-11 0.0 0.0
1.295e+7  8.068e-11 0.0 0.0
1.717e+7  8.684e-11 0.0 0.0
2.307e+7  9.918e-11 0.0 0.0
2.621e+7  1.061e-10 0.0 0.0
3.355e+7  1.327e-10 0.0 0.0
4.100e+7  1.660e-10 0.0 0.0
4.858e+7  2.061e-10 0.0 0.0
5.693e+7  2.545e-10 0.0 0.0
7.682e+7  3.934e-10 0.0 0.0
8.845e+7  4.950e-10 0.0 0.0
9.736e+7  5.883e-10 0.0 0.0
1.125e+8  7.220e-10 0.0 0.0
1.277e+8  8.538e-10 0.0 0.0
1.518e+8  1.094e-9 0.0 0.0
1.785e+8  1.377e-9 0.0 0.0
2.098e+8  1.698e-9 0.0 0.0
2.476e+8  2.101e-9 0.0 0.0
2.985e+8  2.558e-9 0.0 0.0
3.623e+8  3.054e-9 0.0 0.0
4.305e+8  3.630e-9 0.0 0.0
5.820e+8  4.521e-9 0.0 0.0
8.594e+8  5.720e-9 0.0 0.0
1.255e+9  6.981e-9 0.0 0.0
1.802e+9  8.114e-9 0.0 0.0
2.655e+9  9.120e-9 0.0 0.0
3.913e+9  1.000e-8 0.0 0.0
5.767e+9  1.075e-8 0.0 0.0
8.498e+9  1.146e-8 0.0 0.0
9.446e+9  1.151e-8 0.0 0.0
1.275e+10  1.208e-8 0.0 0.0
1.878e+10  1.261e-8 0.0 0.0
2.088e+10  1.241e-8 0.0 0.0
2.818e+10  1.294e-8 0.0 0.0
4.226e+10  1.300e-8 0.0 0.0
6.228e+10  1.280e-8 0.0 0.0
9.018e+10  1.237e-8 0.0 0.0
