# Source: Batista et. al  JCAP 01 (2019) 002 (https://arxiv.org/abs/1806.10879), B field: off
# Data type: Flux
# Column values:
# Energy [eV]
# Flux [GeV cm^-2 s^-1 sr^-1]
# Flux band minimum
# Flux band maximum


1.0629e+17  7.7754e-11 0.0 0.0
1.2388e+17  6.8201e-11 0.0 0.0
1.4440e+17  5.8689e-11 0.0 0.0
1.6833e+17  4.8344e-11 0.0 0.0
1.9625e+17  3.7603e-11 0.0 0.0
2.2876e+17  3.1230e-11 0.0 0.0
2.6662e+17  2.8074e-11 0.0 0.0
3.1095e+17  1.8894e-11 0.0 0.0
3.6266e+17  1.2543e-11 0.0 0.0
4.2289e+17  8.9399e-12 0.0 0.0
4.9312e+17  6.4593e-12 0.0 0.0
5.7517e+17  4.1612e-12 0.0 0.0
6.7106e+17  2.3643e-12 0.0 0.0
7.8242e+17  1.7943e-12 0.0 0.0
9.1224e+17  1.3655e-12 0.0 0.0
1.0566e+18  9.0281e-13 0.0 0.0
1.1830e+18  4.1756e-13 0.0 0.0
1.3074e+18  2.0145e-13 0.0 0.0
1.4523e+18  1.6388e-13 0.0 0.0
1.6891e+18  1.9802e-13 0.0 0.0
1.8915e+18  8.2861e-14 0.0 0.0
2.0312e+18  3.9100e-14 0.0 0.0
2.2273e+18  1.8039e-14 0.0 0.0
2.5101e+18  9.7848e-15 0.0 0.0
2.8861e+18  7.5947e-15 0.0 0.0
3.3617e+18  8.7775e-15 0.0 0.0
3.7387e+18  3.6429e-15 0.0 0.0
3.9586e+18  1.8670e-15 0.0 0.0
4.1916e+18  9.4260e-16 0.0 0.0
4.4387e+18  4.5835e-16 0.0 0.0
4.7004e+18  2.2121e-16 0.0 0.0
4.9779e+18  1.0438e-16 0.0 0.0
5.4720e+18  4.4450e-17 0.0 0.0
5.8463e+18  3.5542e-17 0.0 0.0
6.7277e+18  3.7118e-17 0.0 0.0
7.3304e+18  1.3232e-17 0.0 0.0
7.6568e+18  5.9389e-18 0.0 0.0
7.9975e+18  2.6924e-18 0.0 0.0
8.3538e+18  1.1964e-18 0.0 0.0
8.7866e+18  5.3965e-19 0.0 0.0
9.3678e+18  2.8288e-19 0.0 0.0
1.0128e+19  1.4104e-19 0.0 0.0
